# Matter power spectrum P(k) at redshift z=1
# for k=1.03839e-05 to 103946 h/Mpc,
# number of wavenumbers equal to 162
#    1:k (h/Mpc)              2:P (Mpc/h)^3        
       1.038387980426e-05       2.015657089275e+01 
       1.307253015860e-05       2.514293201366e+01 
       1.645734041311e-05       3.136280353930e+01 
       2.071856405662e-05       3.912130967882e+01 
       2.608312678676e-05       4.879899447739e+01 
       3.283671113090e-05       6.087050626607e+01 
       4.133897008243e-05       7.592776717810e+01 
       5.204267993417e-05       9.470887241339e+01 
       6.551785226700e-05       1.181339926733e+02 
       8.248208914511e-05       1.473499139255e+02 
       1.038387980426e-04       1.837851110206e+02 
       1.307253015860e-04       2.292174866055e+02 
       1.645734041311e-04       2.858570293379e+02 
       2.071856405662e-04       3.564453477199e+02 
       2.608312678676e-04       4.443730766832e+02 
       3.283671113090e-04       5.538138264720e+02 
       4.133897008243e-04       6.898689982088e+02 
       5.204267993417e-04       8.587110189457e+02 
       6.551785226700e-04       1.067704454364e+03 
       8.248208914511e-04       1.325477948449e+03 
       1.038387980426e-03       1.641912295321e+03 
       1.307253015860e-03       2.027969958413e+03 
       1.645734041311e-03       2.495116815374e+03 
       2.071856405662e-03       3.054364282601e+03 
       2.608312678676e-03       3.714391654594e+03 
       3.283671113090e-03       4.478959985749e+03 
       4.133897008243e-03       5.343383399682e+03 
       5.204267993417e-03       6.289768120409e+03 
       6.551785226700e-03       7.281359749206e+03 
       8.248208914511e-03       8.256205589480e+03 
       1.038387980426e-02       9.121267405088e+03 
       1.307253015860e-02       9.749227180885e+03 
       1.645734041309e-02       9.984560280894e+03 
       2.071856389740e-02       9.675569014975e+03 
       2.608300445243e-02       8.753454320032e+03 
       3.281964991556e-02       7.359298389456e+03 
       4.076731882098e-02       5.968584474099e+03 
       4.748610964640e-02       5.172111438946e+03 
       5.235556489500e-02       4.781270282745e+03 
       5.636819838611e-02       4.537775786242e+03 
       5.994952259956e-02       4.354081443697e+03 
       6.328896038018e-02       4.193490642134e+03 
       6.648665992189e-02       4.037823536007e+03 
       6.960262323712e-02       3.877337306869e+03 
       7.267623995969e-02       3.707276693371e+03 
       7.573525737584e-02       3.526475991391e+03 
       7.880036892493e-02       3.336733273209e+03 
       8.188776255393e-02       3.141097273935e+03 
       8.501063007773e-02       2.944611126036e+03 
       8.818010842318e-02       2.752606543350e+03 
       9.140589175815e-02       2.570594436575e+03 
       9.469664359045e-02       2.403335712966e+03 
       9.806028224808e-02       2.254593228494e+03 
       1.015041833512e-01       2.126651425410e+03 
       1.050353261720e-01       2.019853378236e+03 
       1.086604010236e-01       1.932866001029e+03 
       1.123858889329e-01       1.862593337679e+03 
       1.162181211904e-01       1.804249849904e+03 
       1.201633240441e-01       1.751939989869e+03 
       1.242276522951e-01       1.699421466587e+03 
       1.284172145558e-01       1.640864276404e+03 
       1.327380922745e-01       1.572074803950e+03 
       1.371963541906e-01       1.491663193358e+03 
       1.417980675894e-01       1.401274415138e+03 
       1.465493075383e-01       1.305322802815e+03 
       1.514561651563e-01       1.210214471500e+03 
       1.565247558934e-01       1.122437343452e+03 
       1.617612287437e-01       1.047143513180e+03 
       1.671717772872e-01       9.867372444806e+02 
       1.727626534338e-01       9.403879315670e+02 
       1.785401847321e-01       9.040894357853e+02 
       1.845107960933e-01       8.720566932327e+02 
       1.906810367808e-01       8.378402741369e+02 
       1.970576135147e-01       7.965658026722e+02 
       2.036474305566e-01       7.474103885190e+02 
       2.104576376707e-01       6.939513546082e+02 
       2.174956869163e-01       6.418657247659e+02 
       2.247693993211e-01       5.962473463176e+02 
       2.322870426350e-01       5.596559303460e+02 
       2.400574215756e-01       5.313507698990e+02 
       2.480899822819e-01       5.073429790710e+02 
       2.563949331083e-01       4.826997956168e+02 
       2.649833844501e-01       4.544656945853e+02 
       2.738675110412e-01       4.231518597494e+02 
       2.830607411522e-01       3.921106232844e+02 
       2.925779784269e-01       3.651174675596e+02 
       3.024358638260e-01       3.432163710828e+02 
       3.126530874568e-01       3.244919874774e+02 
       3.232507631655e-01       3.059552894798e+02 
       3.342528829678e-01       2.859065202361e+02 
       3.456868741616e-01       2.654757107189e+02 
       3.575842899774e-01       2.467771178543e+02 
       3.699816759319e-01       2.307832997596e+02 
       3.829216702507e-01       2.162491516371e+02 
       3.964544203492e-01       2.016673431131e+02 
       4.106394324383e-01       1.869693831424e+02 
       4.255480244689e-01       1.732504908416e+02 
       4.412666349754e-01       1.608691672649e+02 
       4.579013710836e-01       1.491556757064e+02 
       4.755843921419e-01       1.375488484657e+02 
       4.944830838092e-01       1.264794515338e+02 
       5.148136006390e-01       1.162033471573e+02 
       5.368614811649e-01       1.062103418829e+02 
       5.610141638893e-01       9.653104768062e+01 
       5.878144430577e-01       8.727504503487e+01 
       6.180527285099e-01       7.819824935796e+01 
       6.529356760506e-01       6.931738740122e+01 
       6.944158716649e-01       6.047523473061e+01 
       7.458878060771e-01       5.156111684999e+01 
       8.137756820931e-01       4.238338788339e+01 
       9.112857638517e-01       3.276605621896e+01 
       1.065396821454e+00       2.286002766237e+01 
       1.310859802664e+00       1.406714285118e+01 
       1.647471546876e+00       8.158906107216e+00 
       2.073990047125e+00       4.670733114757e+00 
       2.610998571871e+00       2.651834670542e+00 
       3.287052452179e+00       1.494471864636e+00 
       4.138153861949e+00       8.365049181628e-01 
       5.209627054722e+00       4.653586309555e-01 
       6.558531885160e+00       2.574298113790e-01 
       8.256702454290e+00       1.416708389283e-01 
       1.039457253733e+01       7.759556907059e-02 
       1.308599151198e+01       4.231390950332e-02 
       1.647428725296e+01       2.297958566323e-02 
       2.073989886394e+01       1.243180415085e-02 
       2.610998571786e+01       6.700639568491e-03 
       3.287052452179e+01       3.598768765537e-03 
       4.138153861949e+01       1.925859902989e-03 
       5.209627054722e+01       1.026719564218e-03 
       6.558531885160e+01       5.451061157736e-04 
       8.256702454290e+01       2.879832345508e-04 
       1.039457253733e+02       1.512118378765e-04 
       1.308599151198e+02       7.875450370368e-05 
       1.647428725296e+02       4.056392731293e-05 
       2.073989886394e+02       2.057408777032e-05 
       2.610998571786e+02       1.021943620388e-05 
       3.287052452179e+02       4.941659106379e-06 
       4.138153861949e+02       2.317470679681e-06 
       5.209627054722e+02       1.057648697693e-06 
       6.558531885160e+02       4.777802604756e-07 
       8.256702454290e+02       2.203968597209e-07 
       1.039457253733e+03       1.067398360597e-07 
       1.308599151198e+03       5.331619250080e-08 
       1.647428725296e+03       2.594919238811e-08 
       2.073989886394e+03       1.258369467991e-08 
       2.610998571786e+03       6.566115681405e-09 
       3.287052452180e+03       3.241905426038e-09 
       4.138153861949e+03       1.693795138286e-09 
       5.209627054722e+03       8.737680155133e-10 
       6.558531885160e+03       4.492656447434e-10 
       8.256702454290e+03       2.260492035724e-10 
       1.039457253733e+04       1.199856493048e-10 
       1.308599151198e+04       6.153478967700e-11 
       1.647428725296e+04       3.272765338174e-11 
       2.073989886394e+04       1.766183003880e-11 
       2.610998571786e+04       4.498763541183e-12 
       3.287052452180e+04       2.322264534680e-11 
       4.138153861949e+04       9.079397089008e-10 
       5.209627054722e+04       4.180107300246e-07 
       6.558531885160e+04       5.223632749008e-04 
       8.256702454290e+04       9.884238241281e+00 
       1.039457253733e+05       1.309664668350e+06 
