# Matter power spectrum P(k) at redshift z=1.03169
# for k=1.03839e-05 to 103946 h/Mpc,
# number of wavenumbers equal to 162
#    1:k (h/Mpc)              2:P (Mpc/h)^3        
       1.038387980426e-05       1.960861337125e+01 
       1.307253015860e-05       2.445942043091e+01 
       1.645734041311e-05       3.051020471830e+01 
       2.071856405662e-05       3.805779620236e+01 
       2.608312678676e-05       4.747239362992e+01 
       3.283671113090e-05       5.921574315841e+01 
       4.133897008243e-05       7.386367619143e+01 
       5.204267993417e-05       9.213422489921e+01 
       6.551785226700e-05       1.149225496979e+02 
       8.248208914511e-05       1.433442692666e+02 
       1.038387980426e-04       1.787890417387e+02 
       1.307253015860e-04       2.229864693155e+02 
       1.645734041311e-04       2.780865236878e+02 
       2.071856405662e-04       3.467563996150e+02 
       2.608312678676e-04       4.322947747261e+02 
       3.283671113090e-04       5.387621870931e+02 
       4.133897008243e-04       6.711220037852e+02 
       5.204267993417e-04       8.353798198965e+02 
       6.551785226700e-04       1.038701151179e+03 
       8.248208914511e-04       1.289480866381e+03 
       1.038387980426e-03       1.597330715804e+03 
       1.307253015860e-03       1.972913708784e+03 
       1.645734041311e-03       2.427384101488e+03 
       2.071856405662e-03       2.971455304051e+03 
       2.608312678676e-03       3.613570484183e+03 
       3.283671113090e-03       4.357389006677e+03 
       4.133897008243e-03       5.198352054502e+03 
       5.204267993417e-03       6.119051633066e+03 
       6.551785226700e-03       7.083758524950e+03 
       8.248208914511e-03       8.032124054281e+03 
       1.038387980426e-02       8.873706534091e+03 
       1.307253015860e-02       9.484618403424e+03 
       1.645734041309e-02       9.713562920257e+03 
       2.071856389740e-02       9.412960434808e+03 
       2.608300445243e-02       8.515873131094e+03 
       3.281964991556e-02       7.159557027008e+03 
       4.076731882098e-02       5.806590410621e+03 
       4.748610964640e-02       5.031734480320e+03 
       5.235556489500e-02       4.651501412835e+03 
       5.636819838611e-02       4.414619892278e+03 
       5.994952259956e-02       4.235905667871e+03 
       6.328896038018e-02       4.079679015247e+03 
       6.648665992189e-02       3.928232376820e+03 
       6.960262323712e-02       3.772102133789e+03 
       7.267623995969e-02       3.606656696861e+03 
       7.573525737584e-02       3.430764949443e+03 
       7.880036892493e-02       3.246172197142e+03 
       8.188776255393e-02       3.055849147864e+03 
       8.501063007773e-02       2.864695000922e+03 
       8.818010842318e-02       2.677895978476e+03 
       9.140589175815e-02       2.500824810193e+03 
       9.469664359045e-02       2.338105835608e+03 
       9.806028224808e-02       2.193402874061e+03 
       1.015041833512e-01       2.068932004516e+03 
       1.050353261720e-01       1.965031939817e+03 
       1.086604010236e-01       1.880405653312e+03 
       1.123858889329e-01       1.812040282347e+03 
       1.162181211904e-01       1.755280343078e+03 
       1.201633240441e-01       1.704391446602e+03 
       1.242276522951e-01       1.653298749713e+03 
       1.284172145558e-01       1.596331022253e+03 
       1.327380922745e-01       1.529407502361e+03 
       1.371963541906e-01       1.451178658066e+03 
       1.417980675894e-01       1.363242024232e+03 
       1.465493075383e-01       1.269895705562e+03 
       1.514561651563e-01       1.177368308711e+03 
       1.565247558934e-01       1.091973114935e+03 
       1.617612287437e-01       1.018723038719e+03 
       1.671717772872e-01       9.599563964302e+02 
       1.727626534338e-01       9.148646579620e+02 
       1.785401847321e-01       8.795521360187e+02 
       1.845107960933e-01       8.483895310946e+02 
       1.906810367808e-01       8.151001220203e+02 
       1.970576135147e-01       7.749463838438e+02 
       2.036474305566e-01       7.271257945804e+02 
       2.104576376707e-01       6.751165951856e+02 
       2.174956869163e-01       6.244449142772e+02 
       2.247693993211e-01       5.800648583536e+02 
       2.322870426350e-01       5.444661673388e+02 
       2.400574215756e-01       5.169292303541e+02 
       2.480899822819e-01       4.935736043877e+02 
       2.563949331083e-01       4.695997011561e+02 
       2.649833844501e-01       4.421315559781e+02 
       2.738675110412e-01       4.116674197707e+02 
       2.830607411522e-01       3.814686673672e+02 
       2.925779784269e-01       3.552076896824e+02 
       3.024358638260e-01       3.339013942909e+02 
       3.126530874568e-01       3.156848142436e+02 
       3.232507631655e-01       2.976512311510e+02 
       3.342528829678e-01       2.781468613942e+02 
       3.456868741616e-01       2.582705614727e+02 
       3.575842899774e-01       2.400793486247e+02 
       3.699816759319e-01       2.245197104184e+02 
       3.829216702507e-01       2.103800170635e+02 
       3.964544203492e-01       1.961938345158e+02 
       4.106394324383e-01       1.818949534692e+02 
       4.255480244689e-01       1.685484119616e+02 
       4.412666349754e-01       1.565029554615e+02 
       4.579013710836e-01       1.451074346830e+02 
       4.755843921419e-01       1.338156934899e+02 
       4.944830838092e-01       1.230468019301e+02 
       5.148136006390e-01       1.130495361130e+02 
       5.368614811649e-01       1.033277452907e+02 
       5.610141638893e-01       9.391106042825e+01 
       5.878144430577e-01       8.490636772308e+01 
       6.180527285099e-01       7.607583852828e+01 
       6.529356760506e-01       6.743608834342e+01 
       6.944158716649e-01       5.883385183517e+01 
       7.458878060771e-01       5.016172365124e+01 
       8.137756820931e-01       4.123308513147e+01 
       9.112857638517e-01       3.187677466627e+01 
       1.065396821454e+00       2.223960118190e+01 
       1.310859802664e+00       1.368534302641e+01 
       1.647471546876e+00       7.937462402849e+00 
       2.073990047125e+00       4.543969510533e+00 
       2.610998571871e+00       2.579863744553e+00 
       3.287052452179e+00       1.453909905887e+00 
       4.138153861949e+00       8.138027736879e-01 
       5.209627054722e+00       4.527291745184e-01 
       6.558531885160e+00       2.504432522835e-01 
       8.256702454290e+00       1.378258759455e-01 
       1.039457253733e+01       7.548961667592e-02 
       1.308599151198e+01       4.116553201715e-02 
       1.647428725296e+01       2.235596670383e-02 
       2.073989886394e+01       1.209445717034e-02 
       2.610998571786e+01       6.518834174711e-03 
       3.287052452179e+01       3.501143782077e-03 
       4.138153861949e+01       1.873632200571e-03 
       5.209627054722e+01       9.988891110941e-04 
       6.558531885160e+01       5.303415231632e-04 
       8.256702454290e+01       2.801922301049e-04 
       1.039457253733e+02       1.471285128776e-04 
       1.308599151198e+02       7.663388429095e-05 
       1.647428725296e+02       3.947638493195e-05 
       2.073989886394e+02       2.002602037776e-05 
       2.610998571786e+02       9.949679638815e-06 
       3.287052452179e+02       4.812774077921e-06 
       4.138153861949e+02       2.257847374415e-06 
       5.209627054722e+02       1.030736152228e-06 
       6.558531885160e+02       4.656295653600e-07 
       8.256702454290e+02       2.147046771746e-07 
       1.039457253733e+03       1.039432623282e-07 
       1.308599151198e+03       5.196381488861e-08 
       1.647428725296e+03       2.533404349758e-08 
       2.073989886394e+03       1.226755807558e-08 
       2.610998571786e+03       6.401592873276e-09 
       3.287052452180e+03       3.162475354763e-09 
       4.138153861949e+03       1.654668637917e-09 
       5.209627054722e+03       8.522968746603e-10 
       6.558531885160e+03       4.387082279150e-10 
       8.256702454290e+03       2.210010804780e-10 
       1.039457253733e+04       1.173358780975e-10 
       1.308599151198e+04       6.026355855573e-11 
       1.647428725296e+04       3.230365737141e-11 
       2.073989886394e+04       1.647143041098e-11 
       2.610998571786e+04       4.215405426343e-12 
       3.287052452180e+04       1.524206619798e-11 
       4.138153861949e+04       9.586085079444e-10 
       5.209627054722e+04       5.344591667271e-07 
       6.558531885160e+04       3.737782817745e-04 
       8.256702454290e+04       1.925713728985e+01 
       1.039457253733e+05       2.154089159899e+06 
